Frequenz [Hz];A [V];B [mv];Phasenverschiebung [µs]
100;1,519;11,89;9072
200;1,519;27,15;746,6
300;1,522;41,85;746,6
400;1,519;68,48;686
500;1,498;158,2;762,3
700;1,521;94,26;971,6
850;1,514;60,06;838,6
1000;1,487;47,47;734,9
1200;1,517;41,29;613,6
1500;1,488;31,13;533,4
1700;1,507;30,31;470,8
2000;1,518;35,71;394,5
3000;1,515;44,18;299,6
4000;1,529;51,06;23,32
5000;1,509;16,56;39,46
6000;1,519;8,513;70,76
10000;1,488;16,73;0
